time,eye angle,Simulation_reset
0.0,-5.68412465234e-05
0.01,-7.09387536744e-05
0.02,-4.43590584696e-05
0.03,-5.35123024648e-06
0.04,3.36450923641e-05
0.05,6.08873449237e-05
0.06,6.34043107559e-05
0.07,4.76971090895e-05
0.08,1.97765585717e-05
0.09,-1.22639093072e-05
0.1,-4.37042224939e-05
0.11,-6.64414710934e-05
0.12,-7.64514016907e-05
0.13,-7.30775688589e-05
0.14,-5.71057712353e-05
0.15,-3.51342236193e-05
0.16,-1.20315517811e-05
0.17,8.59747582505e-06
0.18,2.70755566909e-05
0.19,3.66855994094e-05
0.2,4.10555067569e-05
0.21,3.78059339914e-05
0.22,2.99428594017e-05
0.23,1.95427877694e-05
0.24,8.46212512684e-06
0.25,-1.93209659116e-06
0.26,-1.03472492361e-05
0.27,-1.60372825926e-05
0.28,-1.9540933641e-05
0.29,-1.97681645195e-05
0.3,-1.77637912233e-05
0.31,-1.42223301829e-05
0.32,-9.89306565158e-06
0.33,-5.27226969727e-06
0.34,-1.14862506484e-06
0.35,2.59929210555e-06
0.36,5.35936600166e-06
0.37,6.87754410311e-06
0.38,7.75842156253e-06
0.39,7.54103763079e-06
0.4,6.77267719951e-06
0.41,5.55428175097e-06
0.42,4.22133546785e-06
0.43,2.72094432141e-06
0.44,1.48155451551e-06
0.45,6.18927727736e-07
0.46,-8.82644923372e-07
0.47,-1.38718355203e-06
0.48,-1.62986486263e-06
0.49,-1.77171701221e-06
0.5,-1.76116732931e-06
0.51,-1.6861849339e-06
0.52,-1.58002223438e-06
0.53,-1.4688977874e-06
0.54,-1.3571279549e-06
0.55,-1.25425981823e-06
0.56,-1.17392213328e-06
0.57,-1.10156835387e-06
0.58,-1.09121004233e-06
0.59,-9.67306778676e-07
0.6,-5.74493058902e-07
0.61,6.27887251081e-07
0.62,1.04553860059e-06
0.63,1.32170461864e-06
0.64,1.43120185969e-06
0.65,1.44431327564e-06
0.66,1.29749146316e-06
0.67,1.14430574127e-06
0.68,8.68843121893e-07
0.69,5.23628821192e-07
0.7,-5.99903766663e-07
0.71,-7.91542948519e-07
0.72,-6.12801316802e-07
0.73,-5.34572586641e-07
0.74,4.63582378707e-07
0.75,-5.00369691014e-07
0.76,-6.00335632317e-07
0.77,-5.75896347055e-07
0.78,-5.50050458514e-07
0.79,-4.89326205777e-07
0.8,-5.16594192312e-07
0.81,-4.57981110369e-07
0.82,-4.94434511999e-07
0.83,-0.00672217287512
0.84,-0.0319261144141
0.85,-0.0812418755624
0.86,-0.151172425738
0.87,-0.230431140131
0.88,-0.304272022336
0.89,-0.360129228238
0.9,-0.401998355384
0.91,-0.414508704445
0.92,-0.424676606509
0.93,-0.428164723685
0.94,-0.430700363242
0.95,-0.432969694418
0.96,-0.434888202223
0.97,-0.436397455739
0.98,-0.437484334399
0.99,-0.438169616864
1.0,-0.438497217936
1.01,-0.438524508477
1.02,-0.438315429164
1.03,-0.437935218952
1.04,-0.437446471799
1.05,-0.436906827281
1.06,-0.436366789853
1.07,-0.435868689653
1.08,-0.4354454103
1.09,-0.435120165568
1.1,-0.434906240542
1.11,-0.434807308472
1.12,-0.434818566255
1.13,-0.43492767542
1.14,-0.43511695475
1.15,-0.419748703123
1.16,-0.417981409611
1.17,-0.418169586914
1.18,-0.415720975781
1.19,-0.405919388107
1.2,-0.386542968689
1.21,-0.358980025063
1.22,-0.327696328175
1.23,-0.298524736971
1.24,-0.276437218581
1.25,-0.263650540403
1.26,-0.254802427281
1.27,-0.250795843028
1.28,-0.24941623962
1.29,-0.248418794599
1.3,-0.247541838637
1.31,-0.246821362901
1.32,-0.246280820288
1.33,-0.245924126399
1.34,-0.245740251286
1.35,-0.245708316568
1.36,-0.245801349374
1.37,-0.245990033358
1.38,-0.246244748203
1.39,-0.246537744636
1.4,-0.246844111452
1.41,-0.247142673957
1.42,-0.247416630254
1.43,-0.247653416716
1.44,-0.247845212453
1.45,-0.247988265284
1.46,-0.248082957704
1.47,-0.248132886865
1.48,-0.248144401887
1.49,-0.248125788978
1.5,-0.256182051239
1.51,-0.26529261542
1.52,-0.274457429038
1.53,-0.282648202697
1.54,-0.28845461019
1.55,-0.292991521448
1.56,-0.296717988498
1.57,-0.29982482253
1.58,-0.30241761621
1.59,-0.304881261808
1.6,-0.30697822382
1.61,-0.307519267362
1.62,-0.307830964586
1.63,-0.301525991856
1.64,-0.294311077833
1.65,-0.248535804805
1.66,-0.180422616483
1.67,-0.103119481083
1.68,-0.0311064726823
1.69,0.0233416142913
1.7,0.054768036534
1.71,0.0666062035985
1.72,0.0764251290918
1.73,0.0797222567776
1.74,0.0820898663063
1.75,0.0842024878198
1.76,0.0859798220758
1.77,0.087366020348
1.78,0.0883481217583
1.79,0.0889459228896
1.8,0.0892014089529
1.81,0.0891696224786
1.82,0.0889121534502
1.83,0.0884916108835
1.84,0.0879684094273
1.85,0.08739778163
1.86,0.0868282348454
1.87,0.0863001452981
1.88,0.0858447514431
1.89,0.0854840469888
1.9,0.0852302273055
1.91,0.0850865993505
1.92,0.0850480188106
1.93,0.0851025838825
1.94,0.0852330800527
1.95,0.0746151807646
1.96,0.0625952338285
1.97,0.0518577539128
1.98,0.0427582103397
1.99,0.0351303743676
2.0,0.0287314595551
2.01,0.0233494049226
2.02,0.0187196520949
2.03,0.0149172500081
2.04,0.0113639683703
2.05,0.00823668246824
2.06,0.00606854313689
2.07,0.00444604660793
2.08,0.00292174933297
2.09,0.00193475777841
2.1,0.00126547409329
2.11,0.000812329025437
2.12,0.000523280642116
2.13,0.000302397602163
2.14,0.000230758587987
2.15,0.000232118204861
2.16,0.000273770091936
2.17,0.000333029474098
2.18,0.000393174856649
2.19,0.000442397787892
2.2,0.000472989930194
2.21,0.000481177046634
2.22,0.000466283373772
2.23,0.000430419543854
2.24,0.000377475293317
2.25,0.000312540313285
2.26,0.000241294257227
2.27,0.000160881113599
2.28,9.26446103615e-05
2.29,2.3435262634e-05
2.3,-3.45724108475e-05
2.31,-7.02146874754e-05
2.32,-9.06739653446e-05
2.33,-9.89073171422e-05
2.34,-9.95547642479e-05
2.35,-8.96987978511e-05
2.36,-7.34031084102e-05
2.37,-5.33447671507e-05
2.38,-3.20353775476e-05
2.39,-1.13285140375e-05
2.4,7.24892508108e-06
2.41,2.36090228021e-05
2.42,3.59561597656e-05
2.43,4.62771961538e-05
2.44,-0.00666783799555
2.45,-0.0318664851994
2.46,-0.0811795633151
2.47,-0.151109663005
2.48,-0.230369543487
2.49,-0.304212505673
2.5,-0.360072056157
2.51,-0.392357398136
2.52,-0.422177091365
2.53,-0.427896704369
2.54,-0.430573203952
2.55,-0.433089378065
2.56,-0.435376849387
2.57,-0.437318883939
2.58,-0.438852349733
2.59,-0.439961734797
2.6,-0.440666360008
2.61,-0.441009398209
2.62,-0.441048033231
2.63,-0.440846373164
2.64,-0.440470036369
2.65,-0.439982093976
2.66,-0.439440695134
2.67,-0.438896848412
2.68,-0.438393366726
2.69,-0.437963592341
2.7,-0.437631176248
2.71,-0.437409821271
2.72,-0.437303589911
2.73,-0.437308027342
2.74,-0.437411094281
2.75,-0.43759533667
2.76,-0.421907946191
2.77,-0.420096532247
2.78,-0.42028097613
2.79,-0.417776776503
2.8,-0.407773018164
2.81,-0.388003159149
2.82,-0.366974350188
2.83,-0.335991273905
2.84,-0.306281614044
2.85,-0.276696410593
2.86,-0.262772271233
2.87,-0.250728200585
2.88,-0.248411427607
2.89,-0.247314537881
2.9,-0.246284181914
2.91,-0.245356025246
2.92,-0.244582658839
2.93,-0.243992452759
2.94,-0.243592166078
2.95,-0.243372269324
2.96,-0.24331238419
2.97,-0.243385339973
2.98,-0.243561178874
2.99,-0.243809381839
3.0,-0.244101182423
3.01,-0.244410597224
3.02,-0.24471538361
3.03,-0.244997696451
3.04,-0.245243980791
3.05,-0.245445497254
3.06,-0.245597676826
3.07,-0.245700217529
3.08,-0.245756191418
3.09,-0.245771603845
3.1,-0.245754590624
3.11,-0.245714356462
3.12,-0.254059395966
3.13,-0.263508929199
3.14,-0.271962383941
3.15,-0.279132697265
3.16,-0.285141138502
3.17,-0.290171480917
3.18,-0.294722373294
3.19,-0.298899976774
3.2,-0.301886791503
3.21,-0.304437223731
3.22,-0.306687233296
3.23,-0.307084257056
3.24,-0.300894287533
3.25,-0.276778090156
3.26,-0.229276198729
3.27,-0.161769332115
3.28,-0.0851824823565
3.29,-0.0137920055303
3.3,0.0402329851711
3.31,0.0714735545066
3.32,0.10035008873
3.33,0.112421674194
3.34,0.115902118814
3.35,0.118416747908
3.36,0.12069237996
3.37,0.122634446103
3.38,0.124173406741
3.39,0.125286883598
3.4,0.125989396951
3.41,0.126321150731
3.42,0.126338118264
3.43,0.126104743553
3.44,0.125687683781
3.45,0.125152000152
3.46,0.124557698096
3.47,0.123957827067
3.48,0.123396829869
3.49,0.122909383514
3.5,0.12252020228
3.51,0.122243464547
3.52,0.12208373622
3.53,0.122036451902
3.54,0.12208968313
3.55,0.122225675468
3.56,0.122422893971
3.57,0.122658304245
3.58,0.122909079076
3.59,0.123154645667
3.6,0.113847432003
3.61,0.0947291991387
3.62,0.0674856747208
3.63,0.0365456922414
3.64,0.00768643120451
3.65,-0.0141657395008
3.66,-0.0268144401939
3.67,-0.0316270604272
3.68,-0.034164721936
3.69,-0.0352506385687
3.7,-0.0362546473634
3.71,-0.0371512965153
3.72,-0.0378965105213
3.73,-0.0384677815966
3.74,-0.0388617600293
3.75,-0.0390888009818
3.76,-0.039168809949
3.77,-0.0391270173654
3.78,-0.0389912010203
3.79,-0.0387894126609
3.8,-0.0385481409667
3.81,-0.0382914911298
3.82,-0.0380400862013
3.83,-0.0378108522485
3.84,-0.0376163640297
3.85,-0.0374650518767
3.86,-0.0373611301792
3.87,-0.0373048270706
3.88,-0.037293121336
3.89,-0.0373199930349
3.9,-0.0373776481697
3.91,-0.0327191692694
3.92,-0.0274433741907
3.93,-0.0227282327256
3.94,-0.0187304586922
3.95,-0.0147795824469
3.96,-0.0113807495118
3.97,-0.0085189335871
3.98,-0.00661596242192
3.99,-0.00516740742319
4.0,-0.0039915782483
4.01,-0.00302598031812
4.02,-0.00274699948548
4.03,-0.00257037587453
4.04,-0.00242078860481
4.05,-0.0263109515502
4.06,-0.0748622025433
4.07,-0.143807324221
4.08,-0.221978443688
4.09,-0.294820409798
4.1,-0.34992905589
4.11,-0.381784752602
4.12,-0.397715216477
4.13,-0.401173504675
4.14,-0.403732051793
4.15,-0.406171647634
4.16,-0.408359356397
4.17,-0.410189157038
4.18,-0.411609847333
4.19,-0.412614264483
4.2,-0.413227500082
4.21,-0.413495483349
4.22,-0.413476562669
4.23,-0.41323434116
4.24,-0.412832994295
4.25,-0.412333764856
4.26,-0.411792313103
4.27,-0.411257305933
4.28,-0.410768878165
4.29,-0.410358101756
4.3,-0.410046200132
4.31,-0.409844836841
4.32,-0.409756403594
4.33,-0.409774891199
4.34,-0.409887524113
4.35,-0.410076099668
4.36,-0.397882051925
4.37,-0.384062595929
4.38,-0.371711591384
4.39,-0.361242333416
4.4,-0.352118109711
4.41,-0.344752457055
4.42,-0.338611070442
4.43,-0.333459292979
4.44,-0.329138356634
4.45,-0.325531930217
4.46,-0.322547618495
4.47,-0.320107769771
4.48,-0.3177651565
4.49,-0.316165257513
4.5,-0.314718797165
4.51,-0.31364183619
4.52,-0.312915027894
4.53,-0.312588382133
4.54,-0.312434711941
4.55,-0.312386317858
4.56,-0.31240411411
4.57,-0.312460331189
4.58,-0.31253296253
4.59,-0.31261220086
4.6,-0.312676672534
4.61,-0.312723706103
4.62,-0.312736107306
4.63,-0.312726302968
4.64,-0.312687901014
4.65,-0.3126293289
4.66,-0.312552817994
4.67,-0.312471208968
4.68,-0.312392839594
4.69,-0.312319575088
4.7,-0.312253988669
4.71,-0.312201518203
4.72,-0.312162551068
4.73,-0.312137459661
4.74,-0.312125417802
4.75,-0.312124890443
4.76,-0.312133555982
4.77,-0.312148821218
4.78,-0.312168205196
4.79,-0.312189141179
4.8,-0.312209615163
4.81,-0.312229930308
4.82,-0.312282051812
4.83,-0.312337315503
4.84,-0.305662381401
4.85,-0.280486135004
4.86,-0.231173276253
4.87,-0.161224459501
4.88,-0.0819370774482
4.89,-0.0080713326807
4.9,0.0477947757989
4.91,0.101839122952
4.92,0.116886349321
4.93,0.127133875142
4.94,0.130646169791
4.95,0.133230772533
4.96,0.135563347668
4.97,0.137546701364
4.98,0.139112979039
4.99,0.140242909426
5.0,0.140954098261
5.01,0.141289368663
5.02,0.14130689533
5.03,0.141072229487
5.04,0.140652978058
5.05,0.14011428729
5.06,0.139516443535
5.07,0.138912448692
5.08,0.13834688347
5.09,0.137854840414
5.1,0.137461219383
5.11,0.137180958596
5.12,0.137018891186
5.13,0.136971092397
5.14,0.137025755494
5.15,0.137165294615
5.16,0.137368119675
5.17,0.137610741094
5.18,0.137870058578
5.19,0.135168749047
5.2,0.132057014926
5.21,0.121150027701
5.22,0.0918618039032
5.23,0.0572220949554
5.24,0.0219617398425
5.25,-0.00283812540577
5.26,-0.0169277974925
5.27,-0.0222180588982
5.28,-0.0236677702422
5.29,-0.0247700570297
5.3,-0.0258344108352
5.31,-0.0267952313897
5.32,-0.0276008068036
5.33,-0.0282248414898
5.34,-0.0286615756406
5.35,-0.0289208126015
5.36,-0.0290224149188
5.37,-0.0289925646043
5.38,-0.0288601120432
5.39,-0.0286543886316
5.4,-0.0284034384231
5.41,-0.0281326282451
5.42,-0.0278641113965
5.43,-0.0276159799967
5.44,-0.0274022300261
5.45,-0.0272322681983
5.46,-0.0271112774038
5.47,-0.0270403030243
5.48,-0.0270166459022
5.49,-0.0270347490453
5.5,-0.0270865751879
5.51,-0.0237308736168
5.52,-0.0199324051805
5.53,-0.0165402540053
5.54,-0.0136059846368
5.55,-0.0111950590183
5.56,-0.00917207441333
5.57,-0.0074654436552
5.58,-0.0060219896639
5.59,-0.00480231043148
5.6,-0.00359344084844
5.61,-0.0026954376011
5.62,-0.00247031278487
5.63,-0.00233250283856
5.64,-0.00885628867004
5.65,-0.0162728432699
5.66,-0.0626579967749
5.67,-0.131608238385
5.68,-0.209830587598
5.69,-0.28268564099
5.7,-0.355160744398
5.71,-0.410737360801
5.72,-0.425658456504
5.73,-0.429189784095
5.74,-0.431898094727
5.75,-0.434554934375
5.76,-0.436992755463
5.77,-0.439076489574
5.78,-0.44073380736
5.79,-0.440874931501
5.8,-0.442725598549
5.81,-0.443121459479
5.82,-0.44319098157
5.83,-0.443001123784
5.84,-0.442620495925
5.85,-0.44211549551
5.86,-0.441547442353
5.87,-0.440970378999
5.88,-0.440429972358
5.89,-0.439962233787
5.9,-0.439593227512
5.91,-0.439338559806
5.92,-0.439203983266
5.93,-0.439186043283
5.94,-0.439273309703
5.95,-0.439448350507
5.96,-0.423521471788
5.97,-0.41972228711
5.98,-0.420021615356
5.99,-0.41748939131
6.0,-0.407335315638
6.01,-0.387268509176
6.02,-0.365922923482
6.03,-0.334475554916
6.04,-0.304319970672
6.05,-0.281485970816
6.06,-0.268293358433
6.07,-0.263309102407
6.08,-0.259185050376
6.09,-0.2578052856
6.1,-0.256830604464
6.11,-0.255978582106
6.12,-0.255281640761
6.13,-0.254761457058
6.14,-0.254420800647
6.15,-0.25424830289
6.16,-0.254222985305
6.17,-0.254318219553
6.18,-0.254505178452
6.19,-0.254754852541
6.2,-0.255040233762
6.21,-0.25533705225
6.22,-0.255624955444
6.23,-0.255887683254
6.24,-0.256113375514
6.25,-0.256294703899
6.26,-0.256428299165
6.27,-0.256514847123
6.28,-0.256558045838
6.29,-0.256564357449
6.3,-0.25654185044
6.31,-0.263526536554
6.32,-0.271426229905
6.33,-0.278594529666
6.34,-0.284573306729
6.35,-0.289572323061
6.36,-0.293755063308
6.37,-0.297261167549
6.38,-0.300199854636
6.39,-0.302655954578
6.4,-0.304696702626
6.41,-0.306377487299
6.42,-0.308004472696
6.43,-0.308432170835
6.44,-0.302108932046
6.45,-0.277689704407
6.46,-0.234404632962
6.47,-0.166310169481
6.48,-0.0912714016387
6.49,-0.0191709432039
6.5,0.0353406574931
6.51,0.0668321153166
6.52,0.0959257353059
6.53,0.101486759572
6.54,0.104081290691
6.55,0.106522045482
6.56,0.108739226508
6.57,0.110616001928
6.58,0.112088970164
6.59,0.113141665086
6.6,0.113792879784
6.61,0.114085092021
6.62,0.114075188811
6.63,0.113827156389
6.64,0.113406350518
6.65,0.112875955947
6.66,0.11229375467
6.67,0.111710626133
6.68,0.111168775052
6.69,0.110701133838
6.7,0.110330773105
6.71,0.110070721927
6.72,0.109924774437
6.73,0.109887912852
6.74,0.109948154583
6.75,0.11008782829
6.76,0.0963280551723
6.77,0.0807531005635
6.78,0.0650920701097
6.79,0.0510966984937
6.8,0.0411721672835
6.81,0.0334077516955
6.82,0.0257559353459
6.83,0.0202443753958
6.84,0.0159164086392
6.85,0.0123788836779
6.86,0.00947627421225
6.87,0.00711880564978
6.88,0.00507534391655
6.89,0.00360396084647
6.9,0.00251395826383
6.91,0.00172779909157
6.92,0.00118694720018
6.93,0.000841181092162
6.94,0.000645197067117
6.95,0.00055858291026
6.96,0.000545615036645
6.97,0.000576119348253
6.98,0.000623571614749
6.99,0.000673663434756
7.0,0.000709078556052
7.01,0.000720774026889
7.02,0.000708488797498
7.03,0.000665478596016
7.04,0.000600242020414
7.05,0.000512521470386
7.06,0.00040935510992
7.07,0.000309458981941
7.08,0.0002139323762
7.09,0.000125271105596
7.1,5.06973290482e-05
7.11,-8.21596838341e-06
7.12,-5.95826187957e-05
7.13,-8.66130181882e-05
7.14,-9.54305499641e-05
7.15,-8.9615211472e-05
7.16,-7.45042510464e-05
7.17,-5.07783079668e-05
7.18,-2.17231508723e-05
7.19,6.31540541907e-06
7.2,3.29620067858e-05
7.21,5.59396323556e-05
7.22,7.74680165412e-05
7.23,9.70120153347e-05
7.24,-0.00660915478514
7.25,-0.0318021276748
7.26,-0.0811125132624
7.27,-0.151042485722
7.28,-0.230303879373
7.29,-0.304148645448
7.3,-0.360009045538
7.31,-0.392293792652
7.32,-0.408428710311
7.33,-0.411915372273
7.34,-0.414481382321
7.35,-0.41692175015
7.36,-0.419105376557
7.37,-0.420928002368
7.38,-0.422339915877
7.39,-0.423335443506
7.4,-0.423940693686
7.41,-0.424202206173
7.42,-0.424178602794
7.43,-0.423933373337
7.44,-0.423530504681
7.45,-0.423030714205
7.46,-0.422489339137
7.47,-0.421954654312
7.48,-0.421466475132
7.49,-0.421055652805
7.5,-0.420743335605
7.51,-0.420541231344
7.52,-0.420451688077
7.53,-0.42046890872
7.54,-0.420580138894
7.55,-0.420767323182
7.56,-0.407214534553
7.57,-0.39185832009
7.58,-0.378133736804
7.59,-0.366501406368
7.6,-0.35675449414
7.61,-0.348586105902
7.62,-0.341726836597
7.63,-0.335964414893
7.64,-0.331134477955
7.65,-0.327108048559
7.66,-0.32316689967
7.67,-0.320367995803
7.68,-0.317857725673
7.69,-0.315868587522
7.7,-0.314587839432
7.71,-0.313762379008
7.72,-0.313209689726
7.73,-0.312857764008
7.74,-0.312657760653
7.75,-0.312569599058
7.76,-0.312558591557
7.77,-0.312594836591
7.78,-0.312653369549
7.79,-0.312714645789
7.8,-0.312764175477
7.81,-0.312792740443
7.82,-0.312795500875
7.83,-0.312771725225
7.84,-0.31272373703
7.85,-0.312656135831
7.86,-0.312575068484
7.87,-0.312487047061
7.88,-0.312388396545
7.89,-0.312304039177
7.9,-0.312222445465
7.91,-0.312153714795
7.92,-0.312110600768
7.93,-0.312076979698
7.94,-0.312065642411
7.95,-0.312068420069
7.96,-0.312080465615
7.97,-0.312101198768
7.98,-0.31212602886
7.99,-0.312152234675
8.0,-0.312180674383
8.01,-0.312203571009
8.02,-0.312255237559
8.03,-0.312309307234
8.04,-0.305633571548
8.05,-0.280457873137
8.06,-0.231147511359
8.07,-0.161202692558
8.08,-0.0819198764938
8.09,-0.00805789975344
8.1,0.0654200896135
8.11,0.100004631873
8.12,0.112317494499
8.13,0.115782379735
8.14,0.118425379098
8.15,0.120953358304
8.16,0.123219770359
8.17,0.125111962701
8.18,0.126575382067
8.19,0.127602445725
8.2,0.128219138923
8.21,0.12847370923
8.22,0.128426949227
8.23,0.128145228409
8.24,0.12769542652
8.25,0.1271411159
8.26,0.126540471543
8.27,0.125944079039
8.28,0.125394148909
8.29,0.124923264504
8.3,0.124554184931
8.31,0.124299663551
8.32,0.124162717475
8.33,0.124137897094
8.34,0.124212166952
8.35,0.124367157501
8.36,0.108812093867
8.37,0.091221124164
8.38,0.0893010942029
8.39,0.0866790827404
8.4,0.0836757227739
8.41,0.0735541328546
8.42,0.0467452101565
8.43,0.0177689859514
8.44,-0.0113948090493
8.45,-0.0337011714521
8.46,-0.0465940000897
8.47,-0.0514661667094
8.48,-0.0537420255682
8.49,-0.0547143827939
8.5,-0.0556408604642
8.51,-0.0564576745804
8.52,-0.0571232909001
8.53,-0.0576195379407
8.54,-0.0579463256661
8.55,-0.0581167506989
8.56,-0.0581521855877
8.57,-0.0580789432858
8.58,-0.0579247800949
8.59,-0.0577171135873
8.6,-0.0574810922752
8.61,-0.0572387980865
8.62,-0.0570085996673
8.63,-0.0568046200563
8.64,-0.0566369570864
8.65,-0.0565114871981
8.66,-0.0564304393502
8.67,-0.0563924691079
8.68,-0.0563935313461
8.69,-0.0564273695662
8.7,-0.0564861969892
8.71,-0.0493982821581
8.72,-0.0413701752168
8.73,-0.0341913972693
8.74,-0.0270861369196
8.75,-0.0212619842481
8.76,-0.0170893524645
8.77,-0.0137441127163
8.78,-0.0109781154209
8.79,-0.00858003026142
8.8,-0.00662480759138
8.81,-0.00476482182645
8.82,-0.00407052855194
8.83,-0.00382192892941
8.84,-0.00361907211648
8.85,-0.0100375547712
8.86,-0.0558811252112
8.87,-0.106873014005
8.88,-0.182012920143
8.89,-0.253987645712
8.9,-0.308398558626
8.91,-0.36101795968
8.92,-0.375517227779
8.93,-0.378774663738
8.94,-0.381202446458
8.95,-0.383585573934
8.96,-0.385775815038
8.97,-0.387650288619
8.98,-0.389142618501
8.99,-0.390233160096
9.0,-0.390937034109
9.01,-0.39129311243
9.02,-0.391354355121
9.03,-0.391181077451
9.04,-0.390835129462
9.05,-0.390376581173
9.06,-0.389860726385
9.07,-0.389336486515
9.08,-0.38884510137
9.09,-0.388419036852
9.1,-0.388081770715
9.11,-0.387847360322
9.12,-0.387721026345
9.13,-0.38769954943
9.14,-0.387772756409
9.15,-0.387924903954
9.16,-0.378506526481
9.17,-0.367842186212
9.18,-0.358320584642
9.19,-0.350255539641
9.2,-0.343496437268
9.21,-0.337825114401
9.22,-0.333051542036
9.23,-0.329027347274
9.24,-0.325639471377
9.25,-0.322289488262
9.26,-0.319862320651
9.27,-0.317984196886
9.28,-0.31649376596
9.29,-0.315319697456
9.3,-0.31441486723
9.31,-0.313739626
9.32,-0.313142100976
9.33,-0.312801937008
9.34,-0.312539248058
9.35,-0.312440478352
9.36,-0.312425599284
9.37,-0.312440854571
